#
# This scattering intensity file was created by WAXSiS
#
# The calculated I(q) was interpolated to the experimental q-values
#
# q[A-1]        I(q)              sigma(q)
0.0413845	2.58323E+06	32596.3							
0.0437161	2.54554E+06	31939.1							
0.0460476	2.50642E+06	31277.7							
0.0483791	2.46557E+06	30611							
0.0507106	2.42387E+06	29946.5							
0.0530422	2.38023E+06	29286.9							
0.0553737	2.33620E+06	28630.8							
0.0577052	2.29017E+06	27993.4							
0.0600367	2.24411E+06	27356.6							
0.0623683	2.19610E+06	26754.4							
0.0646998	2.14808E+06	26152.2
0.0670313	2.09870E+06	25589.7
0.0693628	2.04912E+06	25033
0.0716943	1.99870E+06	24514.5
0.0740259	1.94796E+06	24010.3
0.0763574	1.89679E+06	23538.4
0.0786889	1.84530E+06	23089.7
0.0810204	1.79366E+06	22665.1
0.083352	1.74182E+06	22271.4
0.0856835	1.68999E+06	21892.6
0.088015	1.63819E+06	21549.8
0.0903465	1.58645E+06	21213.6
0.0926781	1.53505E+06	20915.2
0.0950096	1.48365E+06	20616.9
0.0973411	1.43300E+06	20344.8
0.0996726	1.38234E+06	20072.7
0.102004	1.33260E+06	19812.9
0.104336	1.28300E+06	19555.1
0.106667	1.23437E+06	19308.3
0.108999	1.18613E+06	19065.8
0.11133	1.13880E+06	18827.2
0.113662	1.09216E+06	18591.8
0.115993	1.04630E+06	18356.4
0.118325	1.00150E+06	18121.2
0.120656	9.57259E+05	17884.7
0.122988	9.14472E+05	17644.7
0.125319	8.71986E+05	17403.6
0.127651	8.31381E+05	17155.7
0.129982	7.90776E+05	16907.7
0.132314	7.52457E+05	16649.9
0.134645	7.14155E+05	16392
0.136977	6.77884E+05	16125.3
0.139309	6.41978E+05	15857.1
0.14164	6.07798E+05	15581.8
0.143972	5.74344E+05	15303.5
0.146303	5.42281E+05	15020.3
0.148635	5.11314E+05	14733.1
0.150966	4.81376E+05	14442.8
0.153298	4.52892E+05	14148.2
0.155629	4.25074E+05	13852
0.157961	3.99052E+05	13551.6
0.160292	3.73333E+05	13250.7
0.162624	3.49724E+05	12946.2
0.164955	3.26117E+05	12641.6
0.167287	3.04807E+05	12334.4
0.169618	2.83543E+05	12027.1
0.17195	2.64168E+05	11716.6
0.174281	2.45161E+05	11405.5
0.176613	2.27647E+05	11092.9
0.178944	2.10798E+05	10779.6
0.181276	1.95066E+05	10468.2
0.183608	1.80258E+05	10158.4
0.185939	1.66223E+05	9850.38
0.188271	1.53334E+05	9545
0.190602	1.40907E+05	9240.83
0.192934	1.29804E+05	8940.11
0.195265	1.18891E+05	8639.89
0.197597	1.09441E+05	8343.46
0.199928	9.99917E+04	8047.04
0.20226	9.20093E+04	7753.45
0.204591	8.40739E+04	7459.97
0.206923	7.72732E+04	7166.63
0.209254	7.07137E+04	6873.33
0.211586	6.49972E+04	6576.82
0.213917	5.96768E+04	6278.78
0.216249	5.49491E+04	5973.78
0.21858	5.07350E+04	5662.74
0.220912	4.69030E+04	5366.08
0.223243	4.36659E+04	5091.81
0.225575	4.06395E+04	4820.9
0.227906	3.82566E+04	4560.26
0.230238	3.59489E+04	4301.22
0.23257	3.43035E+04	4056.21
0.234901	3.26582E+04	3811.21
0.237233	3.16148E+04	3599.54
0.239564	3.05980E+04	3389.35
0.241896	3.00100E+04	3231.36
0.244227	2.95206E+04	3085.39
0.246559	2.93217E+04	2992.51
0.24889	2.92667E+04	2925.95
0.251222	2.93951E+04	2889.88
0.253553	2.96900E+04	2881.53
0.255885	3.00887E+04	2880.82
0.258216	3.06571E+04	2892.61
0.260548	3.12738E+04	2903.42
0.262879	3.20477E+04	2911.02
0.265211	3.28347E+04	2917.63
0.267542	3.37540E+04	2914.44
0.269874	3.46733E+04	2911.24
0.272205	3.56806E+04	2899.65
0.274537	3.66929E+04	2887.58
0.276868	3.77436E+04	2871.33
0.2792	3.88037E+04	2854.04
0.281532	3.98701E+04	2835.28
0.283863	4.09397E+04	2815.75
0.286195	4.19978E+04	2796.02
0.288526	4.30449E+04	2776.1
0.290857	4.40739E+04	2756.4
0.293189	4.50719E+04	2737.07
0.295521	4.60545E+04	2717.94
0.297852	4.69826E+04	2699.55
0.300184	4.79040E+04	2681.23
0.302515	4.87458E+04	2663.78
0.304847	4.95876E+04	2646.33
0.307178	5.03375E+04	2629.58
0.30951	5.10809E+04	2612.88
0.311841	5.17398E+04	2596.58
0.314173	5.23763E+04	2580.38
0.316504	5.29404E+04	2564.34
0.318836	5.34648E+04	2548.39
0.321167	5.39317E+04	2532.48
0.323499	5.43414E+04	2516.6
0.32583	5.47103E+04	2500.69
0.328162	5.50054E+04	2484.74
0.330493	5.52766E+04	2468.75
0.332825	5.54589E+04	2452.65
0.335157	5.56338E+04	2436.53
0.337488	5.57070E+04	2420.22
0.339819	5.57801E+04	2403.92
0.342151	5.57571E+04	2387.4
0.344483	5.57261E+04	2370.85
0.346814	5.56187E+04	2354.07
0.349146	5.54895E+04	2337.22
0.351477	5.53025E+04	2320.09
0.353809	5.50821E+04	2302.82
0.35614	5.48208E+04	2285.25
0.358472	5.45168E+04	2267.38
0.360803	5.41868E+04	2249.22
0.363135	5.38073E+04	2230.53
0.365466	5.34144E+04	2211.63
0.367798	5.29680E+04	2191.87
0.370129	5.25183E+04	2172.04
0.372461	5.20137E+04	2150.95
0.374792	5.15090E+04	2129.86
0.377124	5.09594E+04	2107.32
0.379455	5.04053E+04	2084.65
0.381787	4.98203E+04	2060.58
0.384118	4.92259E+04	2036.09
0.38645	4.86118E+04	2010.36
0.388781	4.79858E+04	1983.89
0.391113	4.73489E+04	1956.41
0.393444	4.67000E+04	1927.83
0.395776	4.60464E+04	1898.52
0.398108	4.53833E+04	1867.77
0.400439	4.47191E+04	1837.15
0.402771	4.40500E+04	1807.1
0.405102	4.33810E+04	1777.06
0.407434	4.27140E+04	1747.19
0.409765	4.20470E+04	1717.33
0.412097	4.13886E+04	1686.7
0.414428	4.07311E+04	1655.99
0.41676	4.00863E+04	1624.8
0.419091	3.94456E+04	1593.46
0.421423	3.88192E+04	1561.87
0.423754	3.82018E+04	1530.14
0.426086	3.75982E+04	1498.33
0.428417	3.70102E+04	1466.44
0.430749	3.64335E+04	1434.59
0.43308	3.58804E+04	1402.82
0.435412	3.53344E+04	1371.13
0.437744	3.48209E+04	1339.77
0.440075	3.43088E+04	1308.43
0.442406	3.38390E+04	1277.78
0.444738	3.33693E+04	1247.13
0.44707	3.29412E+04	1217.38
0.449401	3.25185E+04	1187.74
0.451733	3.21326E+04	1159.1
0.454064	3.17594E+04	1130.81
0.456396	3.14170E+04	1103.52
0.458727	3.10952E+04	1076.91
0.461059	3.07973E+04	1051.23
0.46339	3.05280E+04	1026.66
0.465722	3.02750E+04	1002.84
0.468053	3.00584E+04	980.683
0.470385	2.98505E+04	958.985
0.472716	2.96863E+04	939.612
0.475048	2.95231E+04	920.302
0.477379	2.94101E+04	904.061
0.479711	2.92971E+04	887.819
0.482042	2.92274E+04	874.586
0.484374	2.91639E+04	861.779
0.486706	2.91348E+04	851.646
0.489037	2.91183E+04	842.495
0.491369	2.91278E+04	835.553
0.4937	2.91556E+04	830.167
0.496032	2.92015E+04	826.437
0.498363	2.92702E+04	824.792
